NAME HUAWEI ADU451604_1850_X_CO_M45_00T
FREQUENCY 1850
GAIN 15.74 dBd
TILT ELECTRICAL
COMMENT VERSION V00 -45 degrees polarization 00T degree downtilt
HORIZONTAL 360
0.00 0.01
1.00 0.00
2.00 0.00
3.00 0.01
4.00 0.02
5.00 0.05
6.00 0.07
7.00 0.11
8.00 0.15
9.00 0.20
10.00 0.26
11.00 0.32
12.00 0.40
13.00 0.47
14.00 0.56
15.00 0.65
16.00 0.75
17.00 0.85
18.00 0.96
19.00 1.08
20.00 1.20
21.00 1.33
22.00 1.46
23.00 1.61
24.00 1.76
25.00 1.91
26.00 2.07
27.00 2.23
28.00 2.40
29.00 2.58
30.00 2.76
31.00 2.95
32.00 3.14
33.00 3.34
34.00 3.54
35.00 3.75
36.00 3.96
37.00 4.17
38.00 4.40
39.00 4.62
40.00 4.85
41.00 5.08
42.00 5.32
43.00 5.56
44.00 5.80
45.00 6.05
46.00 6.30
47.00 6.55
48.00 6.81
49.00 7.06
50.00 7.33
51.00 7.59
52.00 7.86
53.00 8.13
54.00 8.40
55.00 8.67
56.00 8.95
57.00 9.23
58.00 9.51
59.00 9.79
60.00 10.08
61.00 10.37
62.00 10.66
63.00 10.96
64.00 11.26
65.00 11.56
66.00 11.86
67.00 12.17
68.00 12.48
69.00 12.79
70.00 13.10
71.00 13.42
72.00 13.73
73.00 14.05
74.00 14.37
75.00 14.69
76.00 15.01
77.00 15.33
78.00 15.65
79.00 15.96
80.00 16.28
81.00 16.59
82.00 16.89
83.00 17.20
84.00 17.49
85.00 17.79
86.00 18.08
87.00 18.36
88.00 18.64
89.00 18.92
90.00 19.19
91.00 19.46
92.00 19.73
93.00 20.00
94.00 20.28
95.00 20.55
96.00 20.82
97.00 21.10
98.00 21.39
99.00 21.68
100.00 21.98
101.00 22.28
102.00 22.60
103.00 22.93
104.00 23.26
105.00 23.61
106.00 23.96
107.00 24.33
108.00 24.71
109.00 25.09
110.00 25.48
111.00 25.88
112.00 26.27
113.00 26.67
114.00 27.06
115.00 27.44
116.00 27.81
117.00 28.16
118.00 28.49
119.00 28.79
120.00 29.07
121.00 29.31
122.00 29.52
123.00 29.70
124.00 29.86
125.00 29.99
126.00 30.11
127.00 30.22
128.00 30.32
129.00 30.42
130.00 30.53
131.00 30.64
132.00 30.76
133.00 30.90
134.00 31.06
135.00 31.23
136.00 31.42
137.00 31.63
138.00 31.86
139.00 32.11
140.00 32.37
141.00 32.64
142.00 32.93
143.00 33.23
144.00 33.54
145.00 33.86
146.00 34.19
147.00 34.53
148.00 34.89
149.00 35.25
150.00 35.64
151.00 36.04
152.00 36.47
153.00 36.92
154.00 37.39
155.00 37.89
156.00 38.40
157.00 38.89
158.00 39.35
159.00 39.71
160.00 39.95
161.00 40.00
162.00 39.84
163.00 39.48
164.00 38.96
165.00 38.34
166.00 37.67
167.00 37.00
168.00 36.34
169.00 35.72
170.00 35.17
171.00 34.68
172.00 34.25
173.00 33.88
174.00 33.59
175.00 33.37
176.00 33.22
177.00 33.15
178.00 33.15
179.00 33.23
180.00 33.38
181.00 33.63
182.00 33.96
183.00 34.40
184.00 34.95
185.00 35.63
186.00 36.46
187.00 37.48
188.00 38.72
189.00 40.27
190.00 42.25
191.00 44.89
192.00 48.65
193.00 54.08
194.00 54.43
195.00 48.97
196.00 45.12
197.00 42.45
198.00 40.45
199.00 38.88
200.00 37.63
201.00 36.62
202.00 35.78
203.00 35.10
204.00 34.55
205.00 34.10
206.00 33.76
207.00 33.51
208.00 33.34
209.00 33.25
210.00 33.23
211.00 33.28
212.00 33.41
213.00 33.61
214.00 33.87
215.00 34.20
216.00 34.59
217.00 35.04
218.00 35.55
219.00 36.09
220.00 36.66
221.00 37.21
222.00 37.71
223.00 38.08
224.00 38.26
225.00 38.21
226.00 37.93
227.00 37.44
228.00 36.82
229.00 36.12
230.00 35.39
231.00 34.67
232.00 33.97
233.00 33.32
234.00 32.70
235.00 32.13
236.00 31.60
237.00 31.12
238.00 30.67
239.00 30.26
240.00 29.88
241.00 29.53
242.00 29.21
243.00 28.90
244.00 28.61
245.00 28.34
246.00 28.08
247.00 27.82
248.00 27.57
249.00 27.31
250.00 27.06
251.00 26.80
252.00 26.53
253.00 26.26
254.00 25.98
255.00 25.70
256.00 25.41
257.00 25.11
258.00 24.81
259.00 24.50
260.00 24.20
261.00 23.89
262.00 23.59
263.00 23.29
264.00 22.99
265.00 22.70
266.00 22.41
267.00 22.13
268.00 21.85
269.00 21.58
270.00 21.31
271.00 21.04
272.00 20.78
273.00 20.52
274.00 20.26
275.00 20.01
276.00 19.75
277.00 19.48
278.00 19.22
279.00 18.94
280.00 18.66
281.00 18.37
282.00 18.08
283.00 17.77
284.00 17.45
285.00 17.13
286.00 16.79
287.00 16.45
288.00 16.10
289.00 15.74
290.00 15.37
291.00 15.00
292.00 14.63
293.00 14.25
294.00 13.87
295.00 13.49
296.00 13.11
297.00 12.74
298.00 12.36
299.00 11.99
300.00 11.62
301.00 11.26
302.00 10.91
303.00 10.55
304.00 10.21
305.00 9.87
306.00 9.54
307.00 9.21
308.00 8.90
309.00 8.58
310.00 8.28
311.00 7.98
312.00 7.69
313.00 7.41
314.00 7.13
315.00 6.85
316.00 6.59
317.00 6.33
318.00 6.07
319.00 5.82
320.00 5.57
321.00 5.34
322.00 5.10
323.00 4.87
324.00 4.65
325.00 4.43
326.00 4.21
327.00 4.00
328.00 3.79
329.00 3.59
330.00 3.39
331.00 3.19
332.00 3.01
333.00 2.82
334.00 2.64
335.00 2.46
336.00 2.29
337.00 2.13
338.00 1.97
339.00 1.81
340.00 1.66
341.00 1.52
342.00 1.38
343.00 1.25
344.00 1.12
345.00 1.00
346.00 0.89
347.00 0.78
348.00 0.68
349.00 0.58
350.00 0.50
351.00 0.41
352.00 0.34
353.00 0.27
354.00 0.22
355.00 0.16
356.00 0.12
357.00 0.08
358.00 0.05
359.00 0.03
VERTICAL 360
0.00 0.00
1.00 0.35
2.00 1.59
3.00 3.87
4.00 7.48
5.00 12.98
6.00 19.57
7.00 19.02
8.00 18.20
9.00 20.48
10.00 22.98
11.00 18.73
12.00 15.23
13.00 13.82
14.00 14.09
15.00 15.86
16.00 18.49
17.00 19.18
18.00 17.47
19.00 16.38
20.00 16.79
21.00 19.00
22.00 23.86
23.00 36.68
24.00 32.22
25.00 27.40
26.00 28.01
27.00 31.48
28.00 28.77
29.00 24.19
30.00 22.19
31.00 22.53
32.00 25.95
33.00 40.67
34.00 26.37
35.00 19.53
36.00 16.04
37.00 14.11
38.00 13.15
39.00 12.96
40.00 13.39
41.00 14.41
42.00 15.98
43.00 18.12
44.00 20.90
45.00 24.41
46.00 28.89
47.00 34.69
48.00 42.08
49.00 48.17
50.00 44.96
51.00 38.90
52.00 34.64
53.00 32.22
54.00 31.34
55.00 31.85
56.00 33.60
57.00 36.01
58.00 37.31
59.00 36.92
60.00 36.56
61.00 36.94
62.00 37.74
63.00 38.11
64.00 37.46
65.00 36.16
66.00 34.73
67.00 33.31
68.00 31.96
69.00 30.74
70.00 29.72
71.00 29.00
72.00 28.60
73.00 28.51
74.00 28.62
75.00 28.81
76.00 28.90
77.00 28.79
78.00 28.49
79.00 28.08
80.00 27.66
81.00 27.23
82.00 26.76
83.00 26.27
84.00 25.86
85.00 25.66
86.00 25.79
87.00 26.37
88.00 27.48
89.00 29.32
90.00 32.12
91.00 35.86
92.00 38.04
93.00 36.74
94.00 35.49
95.00 35.06
96.00 34.93
97.00 34.95
98.00 35.56
99.00 37.14
100.00 39.59
101.00 41.99
102.00 43.01
103.00 42.65
104.00 41.64
105.00 40.66
106.00 40.25
107.00 40.54
108.00 41.33
109.00 42.08
110.00 42.29
111.00 42.19
112.00 42.45
113.00 43.35
114.00 44.65
115.00 45.45
116.00 44.75
117.00 43.10
118.00 41.92
119.00 42.03
120.00 43.94
121.00 48.48
122.00 55.35
123.00 51.77
124.00 49.47
125.00 50.76
126.00 56.57
127.00 59.20
128.00 50.51
129.00 46.55
130.00 44.76
131.00 44.62
132.00 46.44
133.00 51.89
134.00 55.73
135.00 46.90
136.00 43.22
137.00 42.22
138.00 43.32
139.00 46.52
140.00 49.27
141.00 46.12
142.00 43.17
143.00 41.83
144.00 41.49
145.00 41.44
146.00 41.13
147.00 40.74
148.00 40.93
149.00 42.35
150.00 45.20
151.00 45.81
152.00 41.77
153.00 38.63
154.00 37.13
155.00 37.11
156.00 38.59
157.00 41.82
158.00 47.07
159.00 50.38
160.00 48.77
161.00 48.63
162.00 49.03
163.00 47.79
164.00 46.79
165.00 47.93
166.00 51.83
167.00 51.86
168.00 47.15
169.00 45.13
170.00 45.72
171.00 49.73
172.00 56.67
173.00 45.52
174.00 39.50
175.00 35.89
176.00 33.72
177.00 32.71
178.00 32.22
179.00 32.44
180.00 33.78
181.00 36.19
182.00 36.33
183.00 35.21
184.00 34.81
185.00 34.96
186.00 34.44
187.00 33.20
188.00 32.49
189.00 33.02
190.00 35.09
191.00 38.96
192.00 44.54
193.00 51.14
194.00 64.67
195.00 45.64
196.00 39.01
197.00 35.62
198.00 34.14
199.00 34.16
200.00 35.58
201.00 38.48
202.00 42.43
203.00 44.02
204.00 42.96
205.00 43.27
206.00 46.00
207.00 49.01
208.00 45.62
209.00 42.78
210.00 42.39
211.00 44.50
212.00 49.88
213.00 50.98
214.00 45.39
215.00 42.78
216.00 41.81
217.00 41.10
218.00 39.68
219.00 37.99
220.00 36.86
221.00 36.60
222.00 37.28
223.00 38.88
224.00 41.45
225.00 45.23
226.00 51.23
227.00 56.28
228.00 49.14
229.00 45.14
230.00 43.56
231.00 43.84
232.00 45.65
233.00 47.92
234.00 49.00
235.00 50.41
236.00 51.61
237.00 47.38
238.00 43.93
239.00 43.14
240.00 45.25
241.00 51.60
242.00 49.18
243.00 42.90
244.00 39.72
245.00 37.83
246.00 36.37
247.00 34.94
248.00 33.60
249.00 32.61
250.00 32.15
251.00 32.24
252.00 32.69
253.00 33.18
254.00 33.43
255.00 33.44
256.00 33.52
257.00 34.00
258.00 34.91
259.00 35.60
260.00 35.28
261.00 34.43
262.00 33.83
263.00 33.54
264.00 33.29
265.00 32.95
266.00 32.62
267.00 32.38
268.00 32.22
269.00 32.08
270.00 31.88
271.00 31.40
272.00 30.51
273.00 29.29
274.00 28.04
275.00 27.05
276.00 26.49
277.00 26.39
278.00 26.65
279.00 27.03
280.00 27.28
281.00 27.24
282.00 26.93
283.00 26.49
284.00 26.09
285.00 25.84
286.00 25.75
287.00 25.77
288.00 25.84
289.00 25.91
290.00 26.02
291.00 26.26
292.00 26.76
293.00 27.67
294.00 29.15
295.00 31.35
296.00 34.22
297.00 36.86
298.00 37.56
299.00 36.94
300.00 36.59
301.00 36.86
302.00 37.48
303.00 37.80
304.00 37.10
305.00 35.54
306.00 33.91
307.00 32.81
308.00 32.46
309.00 32.31
310.00 30.40
311.00 26.60
312.00 22.88
313.00 19.89
314.00 17.61
315.00 15.89
316.00 14.64
317.00 13.82
318.00 13.42
319.00 13.49
320.00 14.07
321.00 15.27
322.00 17.15
323.00 19.81
324.00 23.26
325.00 27.00
326.00 28.77
327.00 27.70
328.00 26.31
329.00 25.49
330.00 25.02
331.00 24.39
332.00 23.53
333.00 22.90
334.00 22.99
335.00 24.21
336.00 27.12
337.00 32.93
338.00 32.94
339.00 26.10
340.00 22.27
341.00 20.37
342.00 20.06
343.00 21.54
344.00 25.67
345.00 32.62
346.00 27.17
347.00 23.65
348.00 23.71
349.00 27.74
350.00 45.71
351.00 29.07
352.00 26.27
353.00 31.97
354.00 22.32
355.00 13.19
356.00 7.79
357.00 4.22
358.00 1.88
359.00 0.51
